FFT Dimension (GHz),Re( Z ) (ohm),Im( Z ) (ohm)
0,-50.8259315,0
9.11720313e-06,-50.8900719,9.03310108
1.82344063e-05,-50.9890556,18.0666103
2.73516074e-05,-51.2298584,27.106657
3.64688125e-05,-51.5044632,36.1412354
4.55860156e-05,-51.8783836,45.1546478
5.47032148e-05,-52.3216743,54.1837997
6.3820418e-05,-52.8501663,63.2363472
7.2937625e-05,-53.4439278,72.2569885
8.20548281e-05,-54.1629181,81.2981415
9.11720313e-05,-54.9695396,90.3399353
0.000100289227,-55.8445168,99.3263702
0.00010940643,-56.7934647,108.399323
0.000118523633,-57.8531952,117.452095
0.000127640836,-58.9939156,126.503769
0.000136758047,-60.1458626,135.473328
0.00014587525,-61.4469223,144.465088
0.000154992453,-62.8166313,153.48764
0.000164109656,-64.3247604,162.604324
0.000173226859,-65.8412094,171.618866
0.000182344063,-67.3762665,180.578461
0.000191461266,-69.1417694,189.592606
0.000200578453,-70.8844757,198.611572
0.000209695656,-72.8743057,207.683167
0.000218812859,-74.8055038,216.618713
0.000227930063,-76.7913666,225.654938
0.000237047266,-78.9746857,234.7052
0.000246164469,-81.2458649,243.704117
0.000255281672,-83.4914551,252.652664
0.000264398875,-85.9405518,261.643311
0.000273516094,-88.4317245,270.62738
0.000282633281,-90.9423065,279.582642
0.0002917505,-93.6383591,288.593933
0.000300867688,-96.3243561,297.429138
0.000309984906,-99.2597961,306.642944
0.000319102094,-102.184311,315.479462
0.000328219313,-105.264481,324.508392
0.0003373365,-108.354889,333.447144
0.000346453719,-111.524696,342.388672
0.000355570906,-114.783478,351.245056
0.000364688125,-118.247704,360.266724
0.000373805313,-121.846222,369.361877
0.000382922531,-125.410515,378.254517
0.000392039719,-128.959442,387.050537
0.000401156906,-132.696335,395.962372
0.000410274125,-136.553635,404.889862
0.000419391313,-140.66835,413.838196
0.000428508531,-144.72525,422.725342
0.000437625719,-148.973587,431.608521
0.000446742938,-153.077484,440.433533
0.000455860125,-157.466873,449.35611
0.000464977344,-161.802399,458.165985
0.000474094531,-166.479614,467.170715
0.00048321175,-171.100449,475.841492
0.000492328938,-175.923676,484.659668
0.000501446156,-180.665619,493.43399
0.000510563344,-185.553574,502.172119
0.000519680563,-190.540344,511.097443
0.00052879775,-195.967133,519.920959
0.000537914938,-201.283035,528.725281
0.000547032188,-206.134277,537.049622
0.000556149375,-211.771042,545.895935
0.000565266563,-217.581696,554.69397
0.00057438375,-223.503983,563.585083
0.000583501,-229.09082,572.094421
0.000592618188,-235.102814,580.902344
0.000601735375,-240.874252,589.251648
0.000610852563,-247.117096,598.022888
0.000619969813,-253.283325,606.521179
0.000629087,-259.603149,615.102295
0.000638204188,-266.327881,623.806702
0.000647321375,-272.952393,632.374207
0.000656438625,-279.603363,640.835083
0.000665555813,-286.479889,649.276489
0.000674673,-293.409546,657.675232
0.000683790187,-300.514679,666.232788
0.000692907438,-307.638794,674.449097
0.000702024625,-314.651611,682.756104
0.000711141812,-322.296753,691.094177
0.000720259,-329.983856,699.534485
0.00072937625,-337.594788,707.814819
0.000738493437,-345.095886,716.045288
0.000747610625,-353.038208,724.08252
0.000756727813,-361.379974,732.484619
0.000765845063,-369.381653,740.342468
0.00077496225,-377.713226,748.384827
0.000784079438,-386.311401,756.60553
0.000793196625,-394.836792,764.724365
0.000802313813,-403.217987,772.625183
0.000811431063,-412.024292,780.563965
0.00082054825,-421.164307,788.4021
0.000829665438,-430.127228,796.074524
0.000838782625,-439.398132,803.93103
0.000847899875,-448.827881,811.742188
0.000857017063,-458.173187,819.307129
0.00086613425,-467.896088,826.840454
0.000875251438,-477.237885,834.125244
0.000884368688,-487.439758,841.915894
0.000893485875,-497.080078,849.31073
0.000902603063,-507.433807,856.981506
0.00091172025,-517.786865,863.935364
0.0009208375,-528.517883,871.193115
0.000929954688,-538.472412,878.477112
0.000939071875,-549.422729,885.461304
0.000948189063,-560.704895,892.461975
0.000957306313,-571.468201,899.446228
0.0009664235,-582.523438,906.417847
0.000975540688,-593.91272,913.347961
0.000984657875,-605.159424,919.767151
0.000993775125,-617.287354,926.296631
0.00100289231,-628.593994,933.027161
0.0010120095,-641.034668,939.607422
0.00102112669,-652.752808,945.91449
0.00103024394,-665.048889,951.836304
0.00103936113,-677.623535,957.961182
0.00104847831,-689.938049,964.165955
0.0010575955,-702.376099,970.214111
0.00106671275,-715.337097,976.281311
0.00107582988,-728.178711,981.95929
0.00108494713,-741.090271,987.685852
0.00109406438,-754.404724,993.274414
0.0011031815,-768.370239,998.101624
0.00111229875,-781.349609,1003.30017
0.001121416,-794.954834,1008.75275
0.00113053313,-808.909729,1014.01495
0.00113965038,-823.352051,1018.71118
0.0011487675,-837.19043,1023.46112
0.00115788475,-851.141357,1027.74451
0.001167002,-865.946228,1032.64185
0.00117611913,-880.468445,1037.26746
0.00118523638,-895.262268,1041.03162
0.0011943535,-909.867676,1044.92041
0.00120347075,-925.241455,1048.55798
0.001212588,-940.627258,1052.8916
0.00122170513,-955.099487,1056.37708
0.00123082238,-971.265259,1059.9967
0.00123993963,-987.062439,1062.34045
0.00124905675,-1002.72748,1065.41125
0.001258174,-1018.12964,1068.60742
0.00126729113,-1034.52625,1070.95288
0.00127640838,-1050.97241,1073.84033
0.00128552563,-1067.85327,1076.37341
0.00129464275,-1083.80127,1078.58179
0.00130376,-1100.32776,1080.28833
0.00131287725,-1116.95056,1081.25269
0.00132199438,-1133.82886,1082.99036
0.00133111163,-1150.9071,1084.1825
0.00134022875,-1168.27026,1085.7561
0.001349346,-1185.65576,1086.00427
0.00135846325,-1203.23108,1086.31714
0.00136758037,-1219.61243,1086.75403
0.00137669763,-1238.23108,1087.58081
0.00138581488,-1256.04419,1087.15881
0.001394932,-1273.51025,1086.59839
0.00140404925,-1291.30188,1086.15918
0.00141316638,-1310.03882,1085.29553
0.00142228362,-1327.49744,1084.16089
0.00143140088,-1346.67371,1082.70642
0.001440518,-1364.57263,1081.19312
0.00144963525,-1383.11011,1079.25317
0.0014587525,-1401.89844,1076.98438
0.00146786963,-1421.06958,1074.96484
0.00147698687,-1439.37683,1071.58997
0.001486104,-1458.82422,1067.84363
0.00149522125,-1476.68237,1065.88855
0.0015043385,-1496.73169,1061.94763
0.00151345563,-1515.74072,1057.87366
0.00152257288,-1534.18921,1053.28723
0.00153169013,-1553.78857,1048.63245
0.00154080725,-1572.6084,1044.74744
0.0015499245,-1591.2511,1039.65723
0.00155904163,-1611.49548,1034.35315
0.00156815888,-1630.17981,1028.07947
0.00157727613,-1649.49768,1021.54852
0.00158639325,-1669.33521,1014.91815
0.0015955105,-1687.79688,1008.47986
0.00160462763,-1707.7489,1001.70856
0.00161374488,-1727.62305,994.065186
0.00162286213,-1746.20862,986.50647
0.00163197925,-1764.87537,977.942993
0.0016410965,-1784.80774,969.768616
0.00165021375,-1804.83325,960.869019
0.00165933088,-1823.77917,951.87085
0.00166844813,-1841.68274,942.580994
0.00167756525,-1861.50562,932.830688
0.0016866825,-1880.45349,922.800964
0.00169579975,-1899.65381,911.483398
0.00170491688,-1918.02942,901.748047
0.00171403413,-1937.17102,890.146362
0.00172315138,-1955.03979,877.908752
0.0017322685,-1974.69788,866.312988
0.00174138575,-1993.77771,853.421021
0.00175050288,-2011.3717,841.051147
0.00175962013,-2029.66235,828.666992
0.00176873738,-2047.22595,814.827332
0.0017778545,-2065.09912,801.509338
0.00178697175,-2083.08765,787.916626
0.001796089,-2101.94678,771.929199
0.00180520613,-2119.24854,758.19104
0.00181432338,-2135.76709,742.956726
0.0018234405,-2152.62256,727.825745
0.00183255775,-2169.51855,712.130493
0.001841675,-2186.70166,697.087769
0.00185079213,-2203.17993,679.916321
0.00185990938,-2219.58179,662.554932
0.00186902663,-2235.4165,645.703918
0.00187814375,-2250.43701,629.307434
0.001887261,-2266.49854,612.082581
0.00189637813,-2282.52393,592.602661
0.00190549538,-2297.30469,573.238403
0.00191461263,-2311.46436,556.569641
0.00192372975,-2326.35522,537.050415
0.001932847,-2339.78076,519.080872
0.00194196425,-2353.9248,499.606598
0.00195108138,-2368.81689,478.770569
0.00196019862,-2381.18433,459.475525
0.00196931575,-2394.08862,439.183289
0.001978433,-2406.17334,419.071991
0.00198755025,-2418.68042,398.466217
0.00199666737,-2430.67065,377.821075
0.00200578463,-2442.51855,355.568787
0.00201490175,-2453.98193,334.550415
0.002024019,-2465.69531,312.687347
0.00203313625,-2474.23486,290.722992
0.00204225338,-2485.09912,269.008545
0.00205137062,-2495.58618,246.703506
0.00206048788,-2504.62744,223.906433
0.002069605,-2514.18921,202.459656
0.00207872225,-2522.28174,178.991562
0.00208783937,-2530.71509,156.644958
0.00209695663,-2538.45435,133.209259
0.00210607375,-2546.17749,110.112488
0.002115191,-2553.41431,87.6226425
0.00212430825,-2560.37109,62.6013641
0.0021334255,-2565.96045,40.3849297
0.00214254275,-2572.24487,16.133379
0.00215165975,-2578.25708,-6.7186985
0.002160777,-2582.90942,-31.7423363
0.00216989425,-2587.53223,-55.7173157
0.0021790115,-2591.64014,-78.50177
0.00218812875,-2595.53711,-101.790306
0.00219724575,-2599.20312,-126.180031
0.002206363,-2601.99805,-150.396423
0.00221548025,-2604.22266,-175.514084
0.0022245975,-2607.74194,-199.198044
0.00223371475,-2609.448,-221.277588
0.002242832,-2610.20068,-246.751053
0.002251949,-2611.52637,-270.014252
0.00226106625,-2611.948,-293.83551
0.0022701835,-2612.4939,-317.605682
0.00227930075,-2612.78613,-341.68634
0.002288418,-2612.14795,-364.59317
0.002297535,-2611.177,-389.445892
0.00230665225,-2609.19604,-412.769989
0.0023157695,-2608.12622,-435.592804
0.00232488675,-2605.59888,-458.388947
0.002334004,-2603.09595,-482.081512
0.002343121,-2600.94458,-504.821014
0.00235223825,-2597.52856,-527.635132
0.0023613555,-2594.7561,-551.782288
0.00237047275,-2590.15332,-574.861877
0.00237959,-2585.50513,-596.319763
0.002388707,-2581.60913,-618.354492
0.00239782425,-2576.63354,-641.223083
0.0024069415,-2572.46362,-663.756409
0.00241605875,-2566.2583,-685.694946
0.002425176,-2560.53809,-707.038818
0.00243429325,-2553.85693,-729.057312
0.00244341025,-2546.92114,-750.549988
0.0024525275,-2540.80811,-772.495911
0.00246164475,-2533.45239,-793.3255
0.002470762,-2526.43848,-812.700378
0.00247987925,-2519.0752,-832.584412
0.00248899625,-2510.24438,-854.3302
0.0024981135,-2502.59253,-875.051025
0.00250723075,-2494.09937,-894.979858
0.002516348,-2486.26196,-914.25116
0.00252546525,-2477.23145,-933.538452
0.00253458225,-2468.71069,-952.568665
0.0025436995,-2458.33398,-972.185791
0.00255281675,-2448.93188,-991.377502
0.002561934,-2438.73047,-1010.04016
0.00257105125,-2428.54248,-1028.64014
0.0025801685,-2418.3606,-1046.69385
0.0025892855,-2409.01221,-1063.56262
0.00259840275,-2397.41382,-1081.54785
0.00260752,-2386.88721,-1099.24548
0.00261663725,-2376.99194,-1115.44849
0.0026257545,-2364.82886,-1132.74915
0.0026348715,-2354.47534,-1148.93848
0.00264398875,-2342.89478,-1165.72192
0.002653106,-2330.85303,-1181.10095
0.00266222325,-2318.55469,-1197.70923
0.0026713405,-2306.90869,-1213.0011
0.0026804575,-2296.10278,-1228.19543
0.00268957475,-2283.18408,-1243.90186
0.002698692,-2270.98389,-1259.19739
0.00270780925,-2258.14478,-1273.08582
0.0027169265,-2246.06689,-1287.552
0.00272604375,-2233.66943,-1301.62451
0.00273516075,-2221.32349,-1315.4613
0.002744278,-2208.30273,-1329.52637
0.00275339525,-2195.52808,-1342.19263
0.0027625125,-2182.2439,-1355.0437
0.00277162975,-2169.11572,-1367.96973
0.00278074675,-2157.34814,-1380.69983
0.002789864,-2143.81226,-1392.6936
0.00279898125,-2130.87622,-1405.16357
0.0028080985,-2116.22803,-1417.52441
0.00281721575,-2103.67627,-1428.96667
0.00282633275,-2090.17285,-1439.70154
0.00283545,-2077.0293,-1451.44275
0.00284456725,-2064.53198,-1461.5968
0.0028536845,-2051.12573,-1473.20935
0.00286280175,-2036.32983,-1483.23694
0.00287191875,-2022.97424,-1493.90515
0.002881036,-2011.18091,-1503.49939
0.00289015325,-1997.85144,-1513.23132
0.0028992705,-1984.19763,-1522.8855
0.00290838775,-1969.47986,-1532.45447
0.002917505,-1956.74194,-1540.81433
0.002926622,-1942.6333,-1550.34753
0.00293573925,-1929.35498,-1559.10315
0.0029448565,-1916.06433,-1567.86108
0.00295397375,-1902.96179,-1575.25012
0.002963091,-1888.85156,-1584.08398
0.002972208,-1875.31946,-1591.9176
0.00298132525,-1861.92346,-1599.62
0.0029904425,-1849.23059,-1606.80127
0.00299955975,-1835.76453,-1614.30957
0.003008677,-1822.30579,-1620.91858
0.003017794,-1808.94165,-1628.36133
0.00302691125,-1795.4375,-1634.79907
0.0030360285,-1782.10364,-1641.92432
0.00304514575,-1769.88062,-1648.17297
0.003054263,-1755.79248,-1653.5498
0.00306338025,-1742.9408,-1660.42664
0.00307249725,-1729.75098,-1666.55884
0.0030816145,-1717.46765,-1671.90283
0.00309073175,-1703.16809,-1677.31726
0.003099849,-1691.04419,-1682.73572
0.00310896625,-1677.77612,-1687.87769
0.00311808325,-1665.10449,-1693.03052
0.0031272005,-1652.36047,-1697.95972
0.00313631775,-1639.55249,-1702.86133
0.003145435,-1626.70142,-1707.58997
0.00315455225,-1614.35107,-1712.16077
0.00316366925,-1601.93274,-1716.12463
0.0031727865,-1589.47351,-1720.09717
0.00318190375,-1576.97034,-1724.57898
0.003191021,-1564.64673,-1728.50439
0.00320013825,-1552.09961,-1731.80469
0.00320925525,-1540.39758,-1735.26294
0.0032183725,-1528.04688,-1739.28699
0.00322748975,-1515.49768,-1742.60828
0.003236607,-1503.14343,-1745.82202
0.00324572425,-1491.44775,-1749.02319
0.0032548415,-1479.66736,-1751.51721
0.0032639585,-1468.07861,-1755.02808
0.00327307575,-1455.61646,-1757.78833
0.003282193,-1444.2915,-1760.19812
0.00329131025,-1432.76746,-1762.83813
0.0033004275,-1421.2395,-1765.32129
0.0033095445,-1409.68335,-1767.76245
0.00331866175,-1398.40198,-1769.98083
0.003327779,-1386.93091,-1771.46252
0.00333689625,-1375.60107,-1774.12854
0.0033460135,-1364.34497,-1775.94873
0.0033551305,-1353.58948,-1777.69751
0.00336424775,-1341.69885,-1779.27197
0.003373365,-1330.98938,-1780.87158
0.00338248225,-1319.93665,-1782.349
0.0033915995,-1309.2196,-1783.97302
0.00340071675,-1298.224,-1785.63611
0.00340983375,-1287.92419,-1786.56055
0.003418951,-1276.90613,-1787.89685
0.00342806825,-1266.54077,-1789.34033
0.0034371855,-1255.91919,-1789.75183
0.00344630275,-1245.6571,-1790.67053
0.00345541975,-1235.77844,-1791.61743
0.003464537,-1225.09558,-1792.95422
0.00347365425,-1214.44446,-1793.33655
0.0034827715,-1204.51025,-1794.16199
0.00349188875,-1194.84558,-1794.26453
0.00350100575,-1184.46484,-1795.1322
0.003510123,-1174.43115,-1795.84717
0.00351924025,-1164.71472,-1795.92957
0.0035283575,-1155.03748,-1796.18848
0.00353747475,-1145.36682,-1796.29358
0.00354659175,-1135.75769,-1796.6156
0.003555709,-1126.29773,-1797.00354
0.00356482625,-1116.49939,-1797.00586
0.0035739435,-1107.46814,-1796.74377
0.00358306075,-1097.79407,-1796.79114
0.003592178,-1088.5791,-1796.89221
0.003601295,-1079.57117,-1796.43774
0.00361041225,-1070.38623,-1796.45557
0.0036195295,-1061.28979,-1796.18616
0.00362864675,-1052.15808,-1795.76794
0.003637764,-1043.11462,-1795.38586
0.003646881,-1035.03223,-1794.82166
0.00365599825,-1025.70911,-1794.51221
0.0036651155,-1016.92194,-1793.96667
0.00367423275,-1008.29712,-1793.61365
0.00368335,-1000.11487,-1793.17419
0.003692467,-991.262695,-1791.86987
0.00370158425,-982.896484,-1791.35352
0.0037107015,-974.605347,-1790.85437
0.00371981875,-966.239014,-1790.14709
0.003728936,-958.001709,-1789.29504
0.00373805325,-949.730835,-1788.29419
0.00374717025,-941.366028,-1787.39905
0.0037562875,-933.563232,-1786.60559
0.00376540475,-925.375916,-1785.56384
0.003774522,-917.647766,-1784.57043
0.00378363925,-909.702393,-1783.66541
0.00379275625,-901.934265,-1782.68762
0.0038018735,-894.154053,-1781.47473
0.00381099075,-886.373779,-1780.39319
0.003820108,-879.08905,-1779.14185
0.00382922525,-871.150269,-1778.19604
0.00383834225,-863.611938,-1776.9563
0.0038474595,-856.18866,-1775.73877
0.00385657675,-848.833252,-1774.30493
0.003865694,-841.501648,-1773.13184
0.00387481125,-834.028687,-1771.91956
0.0038839285,-827.175598,-1770.57166
0.0038930455,-819.425598,-1769.13977
0.00390216275,-812.498657,-1767.89294
0.00391128,-805.512512,-1766.33582
0.00392039725,-798.802124,-1765.07336
0.0039295145,-791.880737,-1763.41431
0.0039386315,-784.842896,-1762.04993
0.00394774875,-777.977905,-1760.4408
0.003956866,-771.196411,-1759.17249
0.00396598325,-764.80249,-1757.58081
0.0039751005,-757.984009,-1755.93445
0.0039842175,-750.996277,-1754.41736
0.00399333475,-744.639954,-1753.02612
0.004002452,-738.257263,-1751.12927
0.00401156925,-731.889343,-1749.76819
0.0040206865,-725.378418,-1747.96497
0.0040298035,-718.833313,-1746.10315
0.00403892075,-712.84021,-1744.71729
0.004048038,-706.500366,-1743.0968
0.00405715525,-700.375061,-1741.34521
0.0040662725,-694.120483,-1739.62073
0.00407538975,-688.028076,-1737.90564
0.00408450675,-681.986755,-1736.24133
0.004093624,-675.766113,-1734.26477
0.00410274125,-670.217896,-1732.74243
0.0041118585,-664.12616,-1730.78015
0.00412097575,-658.478699,-1729.29089
0.00413009275,-652.090576,-1727.2146
0.00413921,-646.323669,-1725.31287
0.00414832725,-641.0224,-1723.69409
0.0041574445,-635.298523,-1721.94006
0.00416656175,-629.487366,-1720.14783
0.00417567875,-623.674255,-1718.31519
0.004184796,-618.291565,-1716.35962
0.00419391325,-612.897156,-1714.45386
0.0042030305,-607.552795,-1712.66223
0.0042121475,-601.925842,-1710.83154
0.004221265,-596.774719,-1709.0321
0.004230382,-591.28009,-1707.05774
0.0042394995,-585.933167,-1705.14954
0.0042486165,-580.790405,-1703.34607
0.0042577335,-575.563354,-1701.43127
0.004266851,-570.428345,-1699.4585
0.004275968,-565.288635,-1697.56714
0.0042850855,-560.033264,-1695.44275
0.0042942025,-555.109497,-1693.73462
0.0043033195,-550.051575,-1691.70459
0.004312437,-545.144592,-1689.74817
0.004321554,-540.259766,-1687.91479
0.0043306715,-535.188843,-1685.72827
0.0043397885,-530.415161,-1683.95117
0.0043489055,-525.630676,-1682.07117
0.004358023,-520.843506,-1680.01721
0.00436714,-516.265564,-1678.2373
0.0043762575,-511.431732,-1676.08167
0.0043853745,-506.859314,-1674.23523
0.0043944915,-501.987854,-1672.07983
0.004403609,-497.459686,-1670.30396
0.004412726,-493.091614,-1668.36511
0.0044218435,-488.317871,-1666.16956
0.0044309605,-483.962219,-1664.3324
0.0044400775,-479.449829,-1662.26355
0.004449195,-475.125153,-1660.41162
0.004458312,-470.595642,-1658.2854
0.0044674295,-466.452393,-1656.39758
0.0044765465,-461.982025,-1654.36804
0.004485664,-457.737335,-1652.40576
0.004494781,-453.350067,-1650.33337
0.004503898,-449.195221,-1648.28125
0.0045130155,-445.060486,-1646.50122
0.0045221325,-440.938019,-1644.54883
0.00453125,-436.851044,-1642.55103
0.004540367,-432.697144,-1640.38586
0.004549484,-428.661621,-1638.56104
0.0045586015,-424.568207,-1636.40186
0.0045677185,-420.61142,-1634.49194
0.004576836,-416.600555,-1632.58167
0.004585953,-412.634674,-1630.52783
0.00459507,-408.724945,-1628.4054
0.0046041875,-404.967316,-1626.64722
0.0046133045,-401.03714,-1624.64905
0.004622422,-397.223175,-1622.69275
0.004631539,-393.340363,-1620.60938
0.004640656,-389.613647,-1618.72705
0.0046497735,-385.982239,-1616.78186
0.0046588905,-382.186005,-1614.80566
0.004668008,-378.522247,-1612.79224
0.004677125,-374.842987,-1610.81738
0.004686242,-371.241547,-1608.76062
0.0046953595,-367.650635,-1606.77576
0.0047044765,-364.063202,-1604.72485
0.004713594,-360.553162,-1603.02942
0.004722711,-356.994507,-1601.03552
0.004731828,-353.612457,-1598.98083
0.0047409455,-350.056152,-1597.12781
0.0047500625,-346.617432,-1595.03552
0.00475918,-343.148376,-1593.03857
0.004768297,-339.872284,-1591.15112
0.004777414,-336.491364,-1589.20447
0.0047865315,-333.095551,-1587.23401
0.0047956485,-329.827423,-1585.35999
